# https://w9.siemens.com/cms/oemproducts/Home/X-rayToolbox/spektrum/Pages/radIn.aspx
# Anode material: Tungsten
# Peak tube voltage: 120 kV
# Relative voltage ripple: 0.04
# Air kerma 0.0025 Gy
# Mean energy 58.333157 keV
# List of filters
# Material Thickness, mm
# AIR 1400
# Al 4
# Spektrum 
 8 0
 9 8.42289e-016
 10 3.01667e-010
 11 5.29287e-007
 12 0.000180995
 13 0.0171807
 14 0.840895
 15 16.3811
 16 130.497
 17 669.317
 18 2304.22
 19 6660.89
 20 16401
 21 29497.8
 22 50004.7
 23 80446.3
 24 120545
 25 172538
 26 234394
 27 309197
 28 392890
 29 488898
 30 585029
 31 654297
 32 721399
 33 791110
 34 852861
 35 912739
 36 967831
 37 1.02086e+006
 38 1.07109e+006
 39 1.12003e+006
 40 1.15928e+006
 41 1.17705e+006
 42 1.19216e+006
 43 1.20689e+006
 44 1.2138e+006
 45 1.21664e+006
 46 1.22735e+006
 47 1.23648e+006
 48 1.22813e+006
 49 1.21744e+006
 50 1.2117e+006
 51 1.19633e+006
 52 1.18048e+006
 53 1.16321e+006
 54 1.15419e+006
 55 1.14432e+006
 56 1.54677e+006
 57 1.95873e+006
 58 2.31496e+006
 59 2.67602e+006
 60 1.933e+006
 61 1.16639e+006
 62 1.06059e+006
 63 952697
 64 929221
 65 902507
 66 1.17044e+006
 67 1.44123e+006
 68 1.18402e+006
 69 917237
 70 784909
 71 651424
 72 623371
 73 592583
 74 583814
 75 576617
 76 560463
 77 541498
 78 529714
 79 510049
 80 497108
 81 474108
 82 471209
 83 455507
 84 437559
 85 419385
 86 409932
 87 400701
 88 383307
 89 365685
 90 351492
 91 336849
 92 321326
 93 304512
 94 291365
 95 278246
 96 267916
 97 257655
 98 244215
 99 230727
 100 220216
 101 209089
 102 195008
 103 179673
 104 167981
 105 156445
 106 142757
 107 129366
 108 117530
 109 104957
 110 92589.9
 111 80799.3
 112 69849.9
 113 60282.2
 114 48043.5
 115 35011.1
 116 24697.7
 117 15567
 118 8464.95
 119 2617.51
 120 541.578
 121 0

