# https://w9.siemens.com/cms/oemproducts/Home/X-rayToolbox/spektrum/Pages/radIn.aspx
# Anode material: Tungsten
# Peak tube voltage:
# (range 30 - 140 kV) kV 46 kV
# Relative voltage ripple: 0.04
# Air kerma 0.0000025 Gy
# Mean energy 33.253374 keV
# List of filters
# Material Thickness, mm
# Al 4
8 0
9 6.20233e-018
10 3.48128e-012
11 4.95378e-009
12 2.11074e-006
13 0.000232564
14 0.0105807
15 0.202545
16 1.29457
17 5.98848
18 20.0537
19 57.1534
20 131.579
21 226.589
22 351.537
23 524.495
24 723.129
25 954.287
26 1198.1
27 1460.87
28 1718.42
29 1978.41
30 2233.29
31 2329.82
32 2361.95
33 2366.99
34 2334.29
35 2259.15
36 2133.62
37 1965.15
38 1845.29
39 1699.77
40 1605.81
41 1350.2
42 1051.19
43 758.7
44 419.428
45 100.564
46 0
47 0
