# https://w9.siemens.com/cms/oemproducts/Home/X-rayToolbox/spektrum/Pages/radIn.aspx	
# Anode material: Tungsten
# Peak tube voltage:
# (range 30 - 140 kV) kV 120 kV
# Relative voltage ripple: 0.04
# Air kerma 0.0000025 Gy
# Mean energy 58.178048 keV
# List of filters
# Material Thickness, mm
# Al 4
 8 0
 9 2.69258e-018
 10 6.87362e-013
 11 1.00927e-009
 12 2.99634e-007
 13 2.54232e-005
 14 0.00113826
 15 0.02066
 16 0.158609
 17 0.787915
 18 2.63862
 19 7.44768
 20 17.964
 21 31.9891
 22 53.732
 23 85.7117
 24 127.43
 25 181.075
 26 244.347
 27 320.336
 28 404.719
 29 500.959
 30 596.536
 31 665.785
 32 732.599
 33 801.843
 34 862.822
 35 921.74
 36 975.68
 37 1027.41
 38 1076.22
 39 1123.64
 40 1161.27
 41 1178.2
 42 1192.45
 43 1206.33
 44 1212.39
 45 1214.39
 46 1224.25
 47 1232.54
 48 1223.41
 49 1211.99
 50 1205.51
 51 1189.79
 52 1173.6
 53 1156.02
 54 1146.66
 55 1136.46
 56 1535.61
 57 1943.95
 58 2296.72
 59 2654.04
 60 1916.49
 61 1156.2
 62 1051.13
 63 944.026
 64 920.591
 65 893.959
 66 1159.14
 67 1427.06
 68 1172.16
 69 907.886
 70 776.767
 71 644.551
 72 616.684
 73 586.123
 74 577.348
 75 570.131
 76 554.062
 77 535.222
 78 523.484
 79 503.964
 80 491.094
 81 468.323
 82 465.411
 83 449.855
 84 432.084
 85 414.094
 86 404.718
 87 395.564
 88 378.354
 89 360.923
 90 346.879
 91 332.394
 92 317.044
 93 300.424
 94 287.425
 95 274.456
 96 264.24
 97 254.095
 98 240.817
 99 227.494
 100 217.108
 101 206.124
 102 192.23
 103 177.102
 104 165.567
 105 154.186
 106 140.687
 107 127.482
 108 115.81
 109 103.415
 110 91.2235
 111 79.6017
 112 68.8101
 113 59.381
 114 47.3223
 115 34.4833
 116 24.3238
 117 15.3304
 118 8.33575
 119 2.5774
 120 0.533244
 121 0

