# https://w9.siemens.com/cms/oemproducts/Home/X-rayToolbox/spektrum/Pages/radIn.aspx	
# Anode material: Tungsten
# Peak tube voltage:
# (range 30 - 140 kV) kV 60 kV
# Relative voltage ripple: 0.04
# Air kerma 0.0000025 Gy
# Mean energy 39.311197 keV
# List of filters
# Material Thickness, mm
# Al 4
 8 0
 9 4.74996e-018
 10 1.82062e-012
 11 2.25439e-009
 12 9.19266e-007
 13 9.52936e-005
 14 0.00452684
 15 0.0866428
 16 0.596538
 17 2.85573
 18 9.61165
 19 27.4165
 20 64.5999
 21 113.331
 22 181.554
 23 278.904
 24 399.712
 25 548.785
 26 719.377
 27 917.426
 28 1106.06
 29 1308.15
 30 1501.54
 31 1620.45
 32 1712.37
 33 1798.4
 34 1870.62
 35 1928.92
 36 1969.17
 37 1996.52
 38 2012.7
 39 2013.8
 40 2016.69
 41 1969.64
 42 1872.68
 43 1773.08
 44 1715.77
 45 1648.09
 46 1530.84
 47 1406.52
 48 1328.48
 49 1241.23
 50 1158.54
 51 1032.38
 52 913.608
 53 789.128
 54 660.316
 55 535.503
 56 372.439
 57 238.121
 58 123.435
 59 30.7021
 60 2.44219
 61 0
