# https://w9.siemens.com/cms/oemproducts/Home/X-rayToolbox/spektrum/Pages/radIn.aspx
# Anode material: Tungsten
# Peak tube voltage: 46 kV
# Relative voltage ripple: 0.04
# Air kerma 0.0025 Gy
# Mean energy 33.338509 keV
# List of filters
# Material Thickness, mm
# AIR 1400
# Al 4
 8 0
 9 1.98718e-015
 10 1.56485e-009
 11 2.66078e-006
 12 0.00130587
 13 0.16097
 14 8.00576
 15 164.484
 16 1090.91
 17 5210.25
 18 17936.2
 19 52353.3
 20 123040
 21 214001
 22 335073
 23 504194
 24 700618
 25 931312
 26 1.17712e+006
 27 1.44421e+006
 28 1.70858e+006
 29 1.97753e+006
 30 2.24324e+006
 31 2.34505e+006
 32 2.38215e+006
 33 2.39185e+006
 34 2.36321e+006
 35 2.29126e+006
 36 2.16771e+006
 37 1.99989e+006
 38 1.88095e+006
 39 1.73532e+006
 40 1.64187e+006
 41 1.38155e+006
 42 1.07637e+006
 43 777432
 44 430085
 45 103190
 46 0
 47 0

