# https://w9.siemens.com/cms/oemproducts/Home/X-rayToolbox/spektrum/Pages/radIn.aspx
# Anode material: Tungsten
# Peak tube voltage: 53 kV
# Relative voltage ripple: 0.04
# Air kerma 0.0025 Gy
# Mean energy 36.445385 keV
# List of filters
# Material Thickness, mm
# AIR 1400
# Al 4
# Spektrum
 8 0
 9 1.71595e-015
 10 1.1049e-009
 11 1.71807e-006
 12 0.000809718
 13 0.09614
 14 4.90176
 15 100.745
 16 695.258
 17 3383.67
 18 11694.6
 19 34180.5
 20 81393
 21 143090
 22 228396
 23 349846
 24 497879
 25 678418
 26 881593
 27 1.11381e+006
 28 1.33682e+006
 29 1.57228e+006
 30 1.80097e+006
 31 1.92491e+006
 32 2.00847e+006
 33 2.07976e+006
 34 2.13157e+006
 35 2.16079e+006
 36 2.16104e+006
 37 2.13919e+006
 38 2.11895e+006
 39 2.0783e+006
 40 2.05376e+006
 41 1.94523e+006
 42 1.77942e+006
 43 1.61255e+006
 44 1.47703e+006
 45 1.32117e+006
 46 1.11423e+006
 47 895933
 48 742433
 49 575168
 50 464937
 51 269209
 52 101830
 53 2665.74
 54 0

