# https://w9.siemens.com/cms/oemproducts/Home/X-rayToolbox/spektrum/Pages/radIn.aspx
# Anode material: Tungsten
# Peak tube voltage: 80 kV
# Relative voltage ripple: 0.04
# Air kerma 0.0025 Gy
# Mean energy 47.090489 keV
# List of filters
# Material Thickness, mm
# AIR 1400
# Al 4
# Spektrum 
 8 0
 9 1.15282e-015
 10 4.07933e-010
 11 5.90006e-007
 12 0.000287072
 13 0.0320615
 14 1.69769
 15 34.6186
 16 266.128
 17 1354.86
 18 4671.37
 19 13573.8
 20 33239.6
 21 59667.2
 22 98457.8
 23 155176
 24 228901
 25 322980
 26 434231
 27 567370
 28 702432
 29 852895
 30 998523
 31 1.09741e+006
 32 1.18737e+006
 33 1.27797e+006
 34 1.35748e+006
 35 1.43118e+006
 36 1.49819e+006
 37 1.5601e+006
 38 1.61107e+006
 39 1.65538e+006
 40 1.69029e+006
 41 1.69651e+006
 42 1.67794e+006
 43 1.65719e+006
 44 1.65342e+006
 45 1.64456e+006
 46 1.62203e+006
 47 1.59615e+006
 48 1.57191e+006
 49 1.54281e+006
 50 1.50474e+006
 51 1.45231e+006
 52 1.40578e+006
 53 1.35627e+006
 54 1.30303e+006
 55 1.24793e+006
 56 1.27831e+006
 57 1.31212e+006
 58 1.34017e+006
 59 1.36384e+006
 60 1.16978e+006
 61 957791
 62 889066
 63 817347
 64 767765
 65 711040
 66 694086
 67 678689
 68 610181
 69 516132
 70 433197
 71 351428
 72 307603
 73 256206
 74 212459
 75 174017
 76 129644
 77 79640.5
 78 40233
 79 3443.04
 80 36.8706
 81 0

