# https://w9.siemens.com/cms/oemproducts/Home/X-rayToolbox/spektrum/Pages/radIn.aspx	
# Anode material: Tungsten
# Peak tube voltage:
# (range 30 - 140 kV) kV 80 kV
# Relative voltage ripple: 0.04
# Air kerma 0.0000025 Gy
# Mean energy 46.961220 keV
# List of filters
# Material Thickness, mm
# Al 4
 8 0
 9 3.65939e-018
 10 9.22966e-013
 11 1.11716e-009
 12 4.71905e-007
 13 4.71098e-005
 14 0.0022819
 15 0.0433548
 16 0.321187
 17 1.58374
 18 5.31175
 19 15.0705
 20 36.1515
 21 64.2522
 22 105.054
 23 164.172
 24 240.277
 25 336.581
 26 449.493
 27 583.682
 28 718.5
 29 867.798
 30 1011.01
 31 1108.83
 32 1197.34
 33 1286.21
 34 1363.69
 35 1435.14
 36 1499.73
 37 1559.1
 38 1607.43
 39 1649.06
 40 1681.3
 41 1686.24
 42 1666.57
 43 1644.78
 44 1639.9
 45 1629.99
 46 1606.57
 47 1579.88
 48 1554.87
 49 1525.12
 50 1486.55
 51 1434.23
 52 1387.78
 53 1338.43
 54 1285.44
 55 1230.66
 56 1260.18
 57 1293.07
 58 1320.27
 59 1343.14
 60 1151.64
 61 942.763
 62 874.951
 63 804.219
 64 755.293
 65 699.36
 66 682.558
 67 667.294
 68 599.827
 69 507.282
 70 425.693
 71 345.278
 72 302.166
 73 251.633
 74 208.63
 75 170.852
 76 127.264
 77 78.1647
 78 39.4806
 79 3.37808
 80 0.0361688
 81 0

